# dimensionless total lensed [l(l+1)/2pi] C_l's
# for l=2 to 2500, i.e. number of multipoles equal to 2499
#
# -> if you prefer output in CAMB/HealPix/LensPix units/order, set 'format' to 'camb' in input file
# -> if you don't want to see such a header, set 'headers' to 'no' in input file
# -> for CMB lensing (phi), these are C_l^phi-phi for the lensing potential.
#    Remember the conversion factors:
#    C_l^dd (deflection) = l(l+1) C_l^phi-phi
#    C_l^gg (shear/convergence) = 1/4 (l(l+1))^2 C_l^phi-phi
#
# 1:l     2:TT                     3:EE                     4:TE                     5:BB                     6:phiphi                 7:TPhi                   8:Ephi               
    2       7.520427710169e-08       1.161033136470e-09       5.899519399665e-12       1.161015422374e-09       2.793339232183e-03       8.517959455080e-06      -2.584974742853e-12 
    3       1.758972945753e-07       2.316686124732e-09       2.414752622726e-11       2.316577481570e-09       5.577709383932e-03       1.819386605193e-05      -2.249690125860e-12 
    4       2.908055437114e-07       3.849670623833e-09       6.673342043724e-11       3.849184747333e-09       9.431697698575e-03       3.044879498658e-05      -1.827230228410e-12 
    5       4.944435426624e-07       5.754127693621e-09       1.470183579087e-10       5.752497917963e-09       1.420791743548e-02       4.790492640909e-05      -1.377287375227e-12 
    6       7.340736480223e-07       8.023783453168e-09       2.789776298589e-10       8.019354374682e-09       2.020239779904e-02       7.012965584497e-05      -1.047743439929e-12 
    7       1.044798197960e-06       1.065253844844e-08       4.752783748426e-10       1.064221858586e-08       2.716534827815e-02       9.354983345464e-05      -1.444101439871e-13 
    8       1.431886266639e-06       1.363507550808e-08       7.462341197259e-10       1.361366880567e-08       3.530896676182e-02       1.274610659425e-04      -4.933201412472e-13 
    9       1.923049004536e-06       1.696744208135e-08       1.097445474600e-09       1.692689497241e-08       4.473919444350e-02       1.596875062339e-04       7.031106326072e-13 
   10       2.390792929145e-06       2.064756303541e-08       1.529345069943e-09       2.057618179297e-08       5.523404834017e-02       1.979964902984e-04       2.973704590033e-12 
   11       3.283658709673e-06       2.467564296518e-08       2.035438091657e-09       2.455735130989e-08       2.722839101625e-01       4.619513522435e-05      -6.531542824901e-13 
   12       3.990332510789e-06       2.905442274226e-08       2.601739506383e-09       2.886814078145e-08       2.506054241283e-01       3.727689008837e-05       2.939541799734e-12 
   13       4.701435523166e-06       3.378926328039e-08       3.207378839446e-09       3.350849440564e-08       2.321168763574e-01       2.449332085302e-05       1.088814873086e-13 
   14       5.875709601008e-06       3.888803942443e-08       3.822754176276e-09       3.848075117245e-08       2.161638616486e-01       2.789279028978e-05       4.400295725012e-12 
   15       6.868368062556e-06       4.436083856980e-08       4.415298333000e-09       4.378971577654e-08       2.022592139979e-01       5.299220602854e-05       1.830706870017e-13 
   16       7.370809809268e-06       5.021947054062e-08       4.941260467178e-09       4.944260486205e-08       1.900328734290e-01       9.403259413644e-05       5.688998005141e-12 
   17       8.244051462924e-06       5.647680756703e-08       5.364589182994e-09       5.544886666910e-08       1.791987408551e-01       1.330658184394e-04      -2.036851639655e-12 
   18       9.983891909861e-06       6.314608583924e-08       5.636682278960e-09       6.181994477250e-08       1.695662946600e-01       1.523547231296e-04      -6.105502282040e-12 
   19       1.124454493132e-05       7.023950392995e-08       5.715827202589e-09       6.856852954436e-08       1.608543402389e-01       1.492887813921e-04      -5.289889796533e-12 
   20       1.031632336452e-05       7.776833974221e-08       5.566065188088e-09       7.570876578053e-08       1.529924322952e-01       1.283254540048e-04      -8.125249044888e-12 
   21       8.329789182478e-06       8.574071796484e-08       5.159870294845e-09       8.325472893311e-08       1.459150944525e-01       1.002515497801e-04      -9.363240422223e-12 
   22       7.352849965447e-06       9.416185882590e-08       4.477668709518e-09       9.122071799448e-08       1.394380014498e-01       7.813101679024e-05      -6.670288612301e-13 
   23       7.495506827794e-06       1.030323862915e-07       3.511049133359e-09       9.961967454578e-08       1.335144056431e-01       6.329786859235e-05       1.133697177270e-11 
   24       8.178393871067e-06       1.123485463416e-07       2.263827647178e-09       1.084634722178e-07       1.280651393437e-01       5.261474586547e-05       1.612462749959e-11 
   25       9.073253625909e-06       1.221013908343e-07       7.574830349835e-10       1.177613491150e-07       1.230565634077e-01       4.274520438314e-05       1.672256684218e-11 
   26       9.961983473025e-06       1.322767597830e-07      -9.693738199789e-10       1.275202276902e-07       1.184185681601e-01       3.121861780320e-05       1.957203592742e-11 
   27       1.100906473079e-05       1.428553903066e-07      -2.859078275011e-09       1.377435155256e-07       1.141186235229e-01       2.285538595214e-05       2.165841816630e-11 
   28       1.247116676682e-05       1.538131861470e-07      -4.839107285724e-09       1.484313476415e-07       1.101058053386e-01       2.379521185394e-05       1.749712987245e-11 
   29       1.431770170213e-05       1.651243371633e-07      -6.838937424993e-09       1.595799596148e-07       1.063774097706e-01       3.176190972865e-05       7.284866270982e-12 
   30       1.639881379724e-05       1.767587787115e-07      -8.778497363719e-09       1.711816784756e-07       1.029086607304e-01       4.073595849790e-05      -6.520703084208e-12 
   31       1.854664035329e-05       1.886832999429e-07      -1.056580133054e-08       1.832251468777e-07       9.964457314189e-02       4.464556443924e-05      -2.057889393754e-11 
   32       2.069074711627e-05       2.008695293437e-07      -1.210647907202e-08       1.956965075840e-07       9.658076214227e-02       4.369018039867e-05      -3.059715753590e-11 
   33       2.278397130672e-05       2.132887303582e-07      -1.329676473750e-08       2.085781419045e-07       9.370639110854e-02       4.041328625010e-05      -3.124889984582e-11 
   34       2.478539774583e-05       2.259125812838e-07      -1.403304491030e-08       2.218490945142e-07       9.099226467154e-02       3.771878047691e-05      -1.813797196873e-11 
   35       2.670600728312e-05       2.387232799921e-07      -1.425547044184e-08       2.354886521053e-07       8.843339001343e-02       3.744603363475e-05       5.185875902663e-12 
   36       2.858005061237e-05       2.517072246281e-07      -1.392025127106e-08       2.494736462598e-07       8.601735846204e-02       4.134538584327e-05       3.165905819121e-11 
   37       3.044614150208e-05       2.648555891274e-07      -1.299463634839e-08       2.637794260349e-07       8.372113303868e-02       5.073026246737e-05       5.368031745297e-11 
   38       3.232039346965e-05       2.781746827015e-07      -1.147673340817e-08       2.783870869945e-07       8.154537356998e-02       6.393146504754e-05       6.741558444186e-11 
   39       3.421526498228e-05       2.916796643919e-07      -9.383944322136e-09       2.932785047144e-07       7.948900086316e-02       7.796372888142e-05       6.982073368686e-11 
   40       3.614710151474e-05       3.053923737065e-07      -6.749161424545e-09       3.084343840879e-07       7.753853900842e-02       8.915064010112e-05       5.746511181643e-11 
   41       3.811323206834e-05       3.193425753871e-07      -3.626889011898e-09       3.238368758713e-07       7.567454116444e-02       9.406370765286e-05       2.852906564597e-11 
   42       4.001366167065e-05       3.335710400739e-07      -1.111630351955e-10       3.394784760171e-07       7.389614118140e-02       9.281291167153e-05      -1.037893720588e-11 
   43       4.170432822995e-05       3.481282653853e-07       3.674545615524e-09       3.553560056790e-07       7.220256296556e-02       8.675335236937e-05      -4.884996354572e-11 
   44       4.301676161702e-05       3.630743103096e-07       7.580273237569e-09       3.714684011866e-07       7.058562160543e-02       7.761786711748e-05      -7.437960147820e-11 
   45       4.382096714093e-05       3.784737254208e-07       1.144008120381e-08       3.878181493570e-07       6.903389889925e-02       6.724856231291e-05      -7.587910695446e-11 
   46       4.423958987345e-05       3.943772919865e-07       1.511095212378e-08       4.044157004772e-07       6.754823626800e-02       5.663978023485e-05      -5.574387708047e-11 
   47       4.449554247917e-05       4.108357216461e-07       1.844292863895e-08       4.212766667239e-07       6.612980691529e-02       4.664938153654e-05      -2.118848242033e-11 
   48       4.485568831788e-05       4.279049804388e-07       2.126727090797e-08       4.384209112454e-07       6.477537392353e-02       3.827282567119e-05       1.898485450507e-11 
   49       4.563322499113e-05       4.456464943797e-07       2.339562551376e-08       4.558727926491e-07       6.347693975566e-02       3.265007227745e-05       5.429734137784e-11 
   50       4.709986282618e-05       4.641167834970e-07       2.465030633931e-08       4.736596954754e-07       6.222488159607e-02       3.072160884843e-05       7.520922330297e-11 
   51       4.918872761476e-05       4.833325698994e-07       2.496675521106e-08       4.918065841618e-07       6.101917383832e-02       3.207045137825e-05       8.200988816771e-11 
   52       5.171493428749e-05       5.032965540387e-07       2.431745644382e-08       5.103403934245e-07       5.986060595710e-02       3.577774734899e-05       7.818717995004e-11 
   53       5.445692642098e-05       5.240068734909e-07       2.268387362456e-08       5.292917730115e-07       5.874738087541e-02       4.073679481633e-05       6.797122600233e-11 
   54       5.715461484030e-05       5.454568110480e-07       2.005708261211e-08       5.486952515297e-07       5.767492850579e-02       4.564343209076e-05       5.637279097868e-11 
   55       5.957684898266e-05       5.676278831775e-07       1.645650734212e-08       5.685842413734e-07       5.663781117498e-02       4.930576006701e-05       4.788357232903e-11 
   56       6.174772331432e-05       5.904677635061e-07       1.199012751306e-08       5.889742250829e-07       5.563642136352e-02       5.168542662049e-05       4.211112556469e-11 
   57       6.377322990193e-05       6.139063637551e-07       6.810336530685e-09       6.098756790734e-07       5.467162123127e-02       5.309818638115e-05       3.712674063493e-11 
   58       6.577767284889e-05       6.378614350243e-07       1.098458308937e-09       6.312988302226e-07       5.374269383894e-02       5.392000141424e-05       3.069501540742e-11 
   59       6.790450817416e-05       6.622380179754e-07      -4.933914426211e-09       6.532536187030e-07       5.284723819131e-02       5.458987243321e-05       2.026007744883e-11 
   60       7.031718369107e-05       6.869278930165e-07      -1.104358183298e-08       6.757496608129e-07       5.198106428037e-02       5.561267001269e-05       2.931805805415e-12 
   61       7.315442194616e-05       7.118216075719e-07      -1.697735809094e-08       6.987918981311e-07       5.113968305229e-02       5.742100198540e-05      -2.349291602801e-11 
   62       7.638243991654e-05       7.368489564321e-07      -2.254563356847e-08       7.223664878619e-07       5.032340456265e-02       5.991817909123e-05      -5.716740117169e-11 
   63       7.991089785725e-05       7.619466533457e-07      -2.756302477449e-08       7.464516650575e-07       4.953320311693e-02       6.283722023206e-05      -9.482415652186e-11 
   64       8.363493556689e-05       7.870464079530e-07      -3.182627421228e-08       7.710216062358e-07       4.876917005055e-02       6.587115493028e-05      -1.327246225420e-10 
   65       8.743456677920e-05       8.120747750307e-07      -3.511364056131e-08       7.960462553423e-07       4.803045937770e-02       6.867138186649e-05      -1.666401107254e-10 
   66       9.117407355462e-05       8.369530037379e-07      -3.718428885922e-08       8.214911497122e-07       4.731523344027e-02       7.084602741717e-05      -1.918327410576e-10 
   67       9.470140067185e-05       8.615968868611e-07      -3.777768068370e-08       8.473172460319e-07       4.662060855674e-02       7.195830419234e-05      -2.030363794789e-10 
   68       9.788409874822e-05       8.859412433313e-07      -3.668059688902e-08       8.734856304288e-07       4.594363542394e-02       7.164191154867e-05      -1.958864570411e-10 
   69       1.007269645185e-04       9.100194633483e-07      -3.394533899418e-08       8.999731460229e-07       4.528459249590e-02       6.997805934190e-05      -1.715884657928e-10 
   70       1.032772591543e-04       9.338998844261e-07      -2.971484877959e-08       9.267596338283e-07       4.464426535773e-02       6.719224132316e-05      -1.331655246125e-10 
   71       1.055905918644e-04       9.576630548892e-07      -2.416008754616e-08       9.538232805563e-07       4.402294363044e-02       6.354528025406e-05      -8.411086632002e-11 
   72       1.077312490368e-04       9.814022131247e-07      -1.748115603003e-08       9.811405694915e-07       4.342039308416e-02       5.933467984531e-05      -2.840583093673e-11 
   73       1.097725233800e-04       1.005223766835e-06      -9.908414317322e-09       1.008686231367e-06       4.283582775127e-02       5.489597669529e-05       2.946214105398e-11 
   74       1.117970430649e-04       1.029247772289e-06      -1.703601758949e-09       1.036433195241e-06       4.226788203958e-02       5.060409222863e-05       8.448151544649e-11 
   75       1.138971008666e-04       1.053608413577e-06       6.839043114677e-09       1.064352539371e-06       4.171458284547e-02       4.687468463476e-05       1.310986710526e-10 
   76       1.161561123646e-04       1.078442401875e-06       1.541093461117e-08       1.092422025164e-06       4.117396904852e-02       4.407443370022e-05       1.644098264733e-10 
   77       1.185883594331e-04       1.103850671583e-06       2.374989300729e-08       1.120653604239e-06       4.064614205986e-02       4.223001940599e-05       1.840275269416e-10 
   78       1.211888056188e-04       1.129930537551e-06       3.158848685677e-08       1.149070861467e-06       4.013154027376e-02       4.126828381364e-05       1.908898156534e-10 
   79       1.239509354009e-04       1.156787383197e-06       3.863503088272e-08       1.177701001713e-06       3.963031048329e-02       4.110208307000e-05       1.861195703471e-10 
   80       1.268666963683e-04       1.184534892051e-06       4.457286124944e-08       1.206574976716e-06       3.914229326861e-02       4.162977194105e-05       1.710313204341e-10 
   81       1.299264413976e-04       1.213295279299e-06       4.905961083425e-08       1.235727611968e-06       3.866700838522e-02       4.273468834563e-05       1.471380641283e-10 
   82       1.331188708310e-04       1.243199523327e-06       5.172648449932e-08       1.265197733592e-06       3.820364015217e-02       4.428463788931e-05       1.161580855762e-10 
   83       1.364309746537e-04       1.274387597258e-06       5.217753436346e-08       1.295028295219e-06       3.775102284032e-02       4.613137839812e-05       8.002177198675e-11 
   84       1.398499146203e-04       1.306964105786e-06       5.010491344478e-08       1.325261175538e-06       3.730801127969e-02       4.812933941627e-05       4.049726413649e-11 
   85       1.433691557925e-04       1.340856238346e-06       4.565817716307e-08       1.355920302073e-06       3.687469528012e-02       5.019647543406e-05      -2.018829542420e-12 
   86       1.469832501920e-04       1.375932582621e-06       3.913516010356e-08       1.387025949299e-06       3.645136068196e-02       5.226260265933e-05      -4.748105427161e-11 
   87       1.506859623829e-04       1.412045115225e-06       3.087264745300e-08       1.418599855989e-06       3.603811401951e-02       5.425087165087e-05      -9.583136181691e-11 
   88       1.544702442529e-04       1.449028683750e-06       2.124759948782e-08       1.450665262519e-06       3.563487438355e-02       5.607757512899e-05      -1.469986995201e-10 
   89       1.583282097955e-04       1.486700488822e-06       1.067837606221e-08       1.483246948183e-06       3.524136528386e-02       5.765195578599e-05      -2.008985993310e-10 
   90       1.622511098920e-04       1.524859566151e-06      -3.740389036873e-10       1.516371268498e-06       3.485710651172e-02       5.887601409665e-05      -2.574327668387e-10 
   91       1.662293070935e-04       1.563286268579e-06      -1.140481293565e-08       1.550066192517e-06       3.448140600242e-02       5.964431612875e-05      -3.164886703043e-10 
   92       1.702522504025e-04       1.601741748139e-06      -2.186404051728e-08       1.584361340138e-06       3.411335169780e-02       5.984380135358e-05      -3.779391296917e-10 
   93       1.743095944918e-04       1.640009219734e-06      -3.124661360715e-08       1.619278007241e-06       3.375208779135e-02       5.938798459952e-05      -4.413686647716e-10 
   94       1.783948046902e-04       1.678025976339e-06      -3.937995442577e-08       1.654797443960e-06       3.339770866473e-02       5.832586356380e-05      -5.052063521743e-10 
   95       1.825020500839e-04       1.715770363649e-06      -4.617749510537e-08       1.690887852243e-06       3.305048497955e-02       5.674911187480e-05      -5.674611832921e-10 
   96       1.866250980087e-04       1.753221822409e-06      -5.155146418507e-08       1.727513874138e-06       3.271058709732e-02       5.475942059408e-05      -6.259795787449e-10 
   97       1.907573045417e-04       1.790360943992e-06      -5.541291256891e-08       1.764636491674e-06       3.237808084555e-02       5.246877814961e-05      -6.784412266788e-10 
   98       1.948916049923e-04       1.827169525985e-06      -5.767173948393e-08       1.802212926728e-06       3.205292328403e-02       4.999975026907e-05      -7.223549210645e-10 
   99       1.990205043938e-04       1.863630627764e-06      -5.823671843822e-08       1.840196540904e-06       3.173495847094e-02       4.748575991308e-05      -7.550543999955e-10 
  100       2.031360679951e-04       1.899728626082e-06      -5.701552317899e-08       1.878536735405e-06       3.142391322909e-02       4.507136720847e-05      -7.736941839868e-10 
  101       2.072299117514e-04       1.935449270643e-06      -5.391475365062e-08       1.917178850910e-06       3.111939291207e-02       4.291254938156e-05      -7.752454142731e-10 
  102       2.112931928163e-04       1.970779739690e-06      -4.883996195271e-08       1.956064067446e-06       3.082087717047e-02       4.117698069141e-05      -7.564916911073e-10 
  103       2.153166000329e-04       2.005708695580e-06      -4.169567829817e-08       1.995129304264e-06       3.052771571803e-02       4.004431236306e-05      -7.140249120591e-10 
  104       2.192937515146e-04       2.040251027229e-06      -3.245989797694e-08       2.034321348013e-06       3.023931366984e-02       3.966080342766e-05      -6.454684180909e-10 
  105       2.232319305714e-04       2.074525764250e-06      -2.141894587063e-08       2.073641626485e-06       2.995572518932e-02       3.999563043873e-05      -5.533435717711e-10 
  106       2.271427890755e-04       2.108688840496e-06      -8.964534800947e-09       2.113107324647e-06       2.967713251458e-02       4.096559880725e-05      -4.417201703605e-10 
  107       2.310390974737e-04       2.142909669992e-06       4.477028292904e-09       2.152737751989e-06       2.940366142288e-02       4.247883953725e-05      -3.150449930320e-10 
