# dimensionless total [l(l+1)/2pi] C_l's
# for l=2 to 3000, i.e. number of multipoles equal to 2999
#
# -> if you prefer output in CAMB/HealPix/LensPix units/order, set 'format' to 'camb' in input file
# -> if you don't want to see such a header, set 'headers' to 'no' in input file
# -> for CMB lensing (phi), these are C_l^phi-phi for the lensing potential.
#    Remember the conversion factors:
#    C_l^dd (deflection) = l(l+1) C_l^phi-phi
#    C_l^gg (shear/convergence) = 1/4 (l(l+1))^2 C_l^phi-phi
#
# 1:l     2:TT                     3:EE                     4:TE                     5:BB                     6:phiphi                 7:TPhi                   8:Ephi               
    2       1.495437887225e-10       7.309026172909e-15       4.815171199970e-13       0.000000000000e+00       8.628903609900e-09       4.854772122263e-10      -2.515854151611e-12 
    3       1.409365943024e-10       1.238791651651e-14       6.068719691964e-13       0.000000000000e+00       5.411291720747e-09       3.469573584031e-10      -2.211507031143e-12 
    4       1.324622774931e-10       1.446512635930e-14       6.277976520580e-13       0.000000000000e+00       3.776588552565e-09       2.639785056959e-10      -1.764116067081e-12 
    5       1.257504767206e-10       1.337853519882e-14       5.879551647002e-13       0.000000000000e+00       2.821984230415e-09       2.093815841280e-10      -1.309529286451e-12 
    6       1.208053913586e-10       1.032310747924e-14       5.173990841438e-13       0.000000000000e+00       2.205212283199e-09       1.709429022051e-10      -8.948468925444e-13 
    7       1.173297571162e-10       6.841600365876e-15       4.365335862034e-13       0.000000000000e+00       1.778233642832e-09       1.425663898166e-10      -5.443860557505e-13 
    8       1.150037075902e-10       4.042374146250e-15       3.576623511392e-13       0.000000000000e+00       1.468351551347e-09       1.208855295171e-10      -2.689334595810e-13 
    9       1.135829009985e-10       2.336357197399e-15       2.880590507274e-13       0.000000000000e+00       1.235838581897e-09       1.038809738786e-10      -7.009986714736e-14 
   10       1.128526892828e-10       1.571653533688e-15       2.317799681290e-13       0.000000000000e+00       1.056623422358e-09       9.029297653939e-11       5.745597591202e-14 
   11       1.126728147799e-10       1.345905907612e-15       1.905574141971e-13       0.000000000000e+00       8.886898866073e-10       7.950622580556e-11       1.233291888795e-13 
   12       1.129346482512e-10       1.288312421121e-15       1.640636561761e-13       0.000000000000e+00       7.765278494218e-10       7.028426767188e-11       1.421600854747e-13 
   13       1.135181528099e-10       1.200674797100e-15       1.505300362997e-13       0.000000000000e+00       6.844563326789e-10       6.274647574156e-11       1.277329344119e-13 
   14       1.143248539633e-10       1.054790798630e-15       1.474046706732e-13       0.000000000000e+00       6.078507022089e-10       5.620932594376e-11       9.279532796972e-14 
   15       1.153611553001e-10       9.105397340088e-16       1.516730192902e-13       0.000000000000e+00       5.433693950178e-10       5.074770567444e-11       4.959311367219e-14 
   16       1.165881732585e-10       8.293959318799e-16       1.602914710082e-13       0.000000000000e+00       4.885455305550e-10       4.611880785773e-11       7.232457043360e-15 
   17       1.179228766649e-10       8.287731533357e-16       1.707806936563e-13       0.000000000000e+00       4.415155574515e-10       4.212235145128e-11      -2.792920719814e-14 
   18       1.193693324595e-10       8.811664361856e-16       1.812740701216e-13       0.000000000000e+00       4.006946007263e-10       3.857273425352e-11      -5.233421673755e-14 
   19       1.209354732118e-10       9.538926646935e-16       1.907919251419e-13       0.000000000000e+00       3.654375303434e-10       3.544037587595e-11      -6.510245742315e-14 
   20       1.225654210906e-10       1.013472815642e-15       1.985909989541e-13       0.000000000000e+00       3.343837603232e-10       3.267209115382e-11      -6.706958872769e-14 
   21       1.242710987692e-10       1.062834165225e-15       2.047508483393e-13       0.000000000000e+00       3.070458377167e-10       3.022365663691e-11      -6.038518099779e-14 
   22       1.260522063537e-10       1.120089788919e-15       2.097242387557e-13       0.000000000000e+00       2.827706821223e-10       2.801369672250e-11      -4.840846306425e-14 
   23       1.278979532739e-10       1.204635700208e-15       2.139590306314e-13       0.000000000000e+00       2.612248133620e-10       2.601113447768e-11      -3.407762181933e-14 
   24       1.297762579685e-10       1.335071215344e-15       2.179755426442e-13       0.000000000000e+00       2.419102419190e-10       2.418236717400e-11      -2.047693837078e-14 
   25       1.317039918207e-10       1.511806345247e-15       2.222685094810e-13       0.000000000000e+00       2.246000751505e-10       2.253677423993e-11      -9.447600219687e-15 
   26       1.336934820875e-10       1.727825393000e-15       2.272832347698e-13       0.000000000000e+00       2.089813615651e-10       2.107676172969e-11      -2.331878386552e-15 
   27       1.357258783417e-10       1.976711990892e-15       2.330399219103e-13       0.000000000000e+00       1.948668548030e-10       1.976942536225e-11       6.620874570040e-16 
   28       1.377655509530e-10       2.252057272012e-15       2.393544110659e-13       0.000000000000e+00       1.820132713768e-10       1.856394834559e-11      -9.525865656236e-17 
   29       1.398222354181e-10       2.553377841823e-15       2.459228014062e-13       0.000000000000e+00       1.703550513411e-10       1.745584709291e-11      -3.801164585401e-15 
   30       1.419101731589e-10       2.881917843396e-15       2.523094511657e-13       0.000000000000e+00       1.597671042280e-10       1.644630524373e-11      -9.226625362375e-15 
   31       1.440332199683e-10       3.238301828684e-15       2.580005828349e-13       0.000000000000e+00       1.500335693902e-10       1.552718131609e-11      -1.492866704990e-14 
   32       1.461942651585e-10       3.620417545822e-15       2.626239878105e-13       0.000000000000e+00       1.411042583377e-10       1.468921657393e-11      -2.002927036814e-14 
   33       1.483866109446e-10       4.024639252018e-15       2.658009009027e-13       0.000000000000e+00       1.329161010344e-10       1.391497860405e-11      -2.370100759545e-14 
   34       1.505973858322e-10       4.447817450822e-15       2.671636668609e-13       0.000000000000e+00       1.253545982672e-10       1.318309557883e-11      -2.518539308021e-14 
   35       1.528332216727e-10       4.892544928912e-15       2.666307507414e-13       0.000000000000e+00       1.183811086806e-10       1.249406663890e-11      -2.459200535231e-14 
   36       1.551019048475e-10       5.363799237420e-15       2.642298489589e-13       0.000000000000e+00       1.119397476361e-10       1.185261241083e-11      -2.238999269310e-14 
   37       1.574058362246e-10       5.866748481210e-15       2.600329642682e-13       0.000000000000e+00       1.059467510528e-10       1.126054051996e-11      -1.915231559601e-14 
   38       1.597454853924e-10       6.403718088639e-15       2.541715755744e-13       0.000000000000e+00       1.003866708114e-10       1.071669914763e-11      -1.535846013559e-14 
   39       1.621158461852e-10       6.976268060587e-15       2.468320928189e-13       0.000000000000e+00       9.524189568299e-11       1.021645940085e-11      -1.154171510516e-14 
   40       1.645046229023e-10       7.586006462313e-15       2.382561871179e-13       0.000000000000e+00       9.046338875697e-11       9.751314200648e-12      -8.351242873166e-15 
   41       1.668978694830e-10       8.234293962921e-15       2.286722626690e-13       0.000000000000e+00       8.598777931897e-11       9.311591183642e-12      -6.389558482864e-15 
   42       1.693007837123e-10       8.921239578920e-15       2.180548494471e-13       0.000000000000e+00       8.180192050184e-11       8.896429813430e-12      -5.644106400495e-15 
   43       1.717225137538e-10       9.646379549753e-15       2.062926213149e-13       0.000000000000e+00       7.789473302410e-11       8.506508640852e-12      -5.882707424756e-15 
   44       1.741701549049e-10       1.040892638957e-14       1.932520628909e-13       0.000000000000e+00       7.423783283738e-11       8.141177682779e-12      -6.802860730036e-15 
   45       1.766484089748e-10       1.120805238951e-14       1.787876057731e-13       0.000000000000e+00       7.079567617640e-11       7.798902096540e-12      -8.072935776782e-15 
   46       1.791590522389e-10       1.204388706618e-14       1.627792985677e-13       0.000000000000e+00       6.756285818029e-11       7.479020481832e-12      -9.481084739753e-15 
   47       1.817008671931e-10       1.291678479876e-14       1.451037656005e-13       0.000000000000e+00       6.453562146223e-11       7.180317988007e-12      -1.082316022785e-14 
   48       1.842694527636e-10       1.382704578385e-14       1.256226481261e-13       0.000000000000e+00       6.170060574899e-11       6.900434139695e-12      -1.185902978890e-14 
   49       1.868569602397e-10       1.477491401787e-14       1.041817292868e-13       0.000000000000e+00       5.903413372987e-11       6.635780768099e-12      -1.231068844964e-14 
   50       1.894553074461e-10       1.576058617778e-14       8.065349326439e-14       0.000000000000e+00       5.650934394159e-11       6.382582296711e-12      -1.195046032012e-14 
   51       1.920674624293e-10       1.678424578608e-14       5.508045175755e-14       0.000000000000e+00       5.412152877650e-11       6.140519889323e-12      -1.089820682739e-14 
   52       1.946987661439e-10       1.784603483192e-14       2.756920929433e-14       0.000000000000e+00       5.186843973642e-11       5.909934604000e-12      -9.401529706878e-15 
   53       1.973536239031e-10       1.894604221421e-14      -1.748429501738e-15       0.000000000000e+00       4.974270481718e-11       5.690762934132e-12      -7.755029114311e-15 
   54       2.000354049928e-10       2.008430223692e-14      -3.271429099061e-14       0.000000000000e+00       4.773148362986e-11       5.482507556405e-12      -6.302655651109e-15 
   55       2.027464848446e-10       2.126081020269e-14      -6.518232583126e-14       0.000000000000e+00       4.582038621943e-11       5.284467349648e-12      -5.357166478337e-15 
   56       2.054886137943e-10       2.247557717759e-14      -9.914796487528e-14       0.000000000000e+00       4.400715962658e-11       5.096561379694e-12      -4.929674433556e-15 
   57       2.082624640980e-10       2.372858619542e-14      -1.346488505973e-13       0.000000000000e+00       4.229079727945e-11       4.918658372819e-12      -4.937032865737e-15 
   58       2.110674026331e-10       2.501977553090e-14      -1.717283584816e-13       0.000000000000e+00       4.066739831665e-11       4.750316645273e-12      -5.277986553236e-15 
   59       2.139013960672e-10       2.634903786109e-14      -2.104359733830e-13       0.000000000000e+00       3.912998882663e-11       4.590764952717e-12      -5.832294018357e-15 
   60       2.167609160267e-10       2.771621942684e-14      -2.508276658878e-13       0.000000000000e+00       3.766834308692e-11       4.438883339648e-12      -6.459849841906e-15 
   61       2.196424282990e-10       2.912106328443e-14      -2.929544252263e-13       0.000000000000e+00       3.627182363778e-11       4.293506533514e-12      -7.029631531660e-15 
   62       2.225474655855e-10       3.056302607302e-14      -3.368239988095e-13       0.000000000000e+00       3.493905084960e-11       4.154457030082e-12      -7.516118332469e-15 
   63       2.254785302846e-10       3.204141844350e-14      -3.824311934964e-13       0.000000000000e+00       3.367009645728e-11       4.021710967458e-12      -7.923055678001e-15 
   64       2.284375672454e-10       3.355545477806e-14      -4.297689617893e-13       0.000000000000e+00       3.246357491767e-11       3.895087303694e-12      -8.255607654853e-15 
   65       2.314259191968e-10       3.510425057770e-14      -4.788284024104e-13       0.000000000000e+00       3.131656043424e-11       3.774238900320e-12      -8.520425627659e-15 
   66       2.344442821767e-10       3.668681984963e-14      -5.295987608800e-13       0.000000000000e+00       3.022450398167e-11       3.658643605870e-12      -8.725716864182e-15 
   67       2.374926609603e-10       3.830207249475e-14      -5.820674300931e-13       0.000000000000e+00       2.918115033054e-11       3.547595339413e-12      -8.881313160420e-15 
   68       2.405708360984e-10       3.994893232563e-14      -6.362198982400e-13       0.000000000000e+00       2.818020885884e-11       3.440402180588e-12      -8.997649244433e-15 
   69       2.436799745491e-10       4.162672472917e-14      -6.920395790232e-13       0.000000000000e+00       2.722094459321e-11       3.337047180072e-12      -9.082304214966e-15 
   70       2.468212668328e-10       4.333486322224e-14      -7.495079479167e-13       0.000000000000e+00       2.630357620456e-11       3.237646043987e-12      -9.142879368429e-15 
   71       2.499954133770e-10       4.507273623536e-14      -8.086045910237e-13       0.000000000000e+00       2.542758502090e-11       3.142248417343e-12      -9.188066425852e-15 
   72       2.532025930306e-10       4.683970758537e-14      -8.693072043067e-13       0.000000000000e+00       2.459167690589e-11       3.050834261848e-12      -9.227688275088e-15 
   73       2.564424315767e-10       4.863511694802e-14      -9.315915928183e-13       0.000000000000e+00       2.379374413735e-11       2.963310233724e-12      -9.272739713017e-15 
   74       2.597139702470e-10       5.045828033061e-14      -9.954316699317e-13       0.000000000000e+00       2.303082728579e-11       2.879506061517e-12      -9.335428187749e-15 
   75       2.630156342349e-10       5.230849054464e-14      -1.060799456571e-12       0.000000000000e+00       2.229907709293e-11       2.799170923912e-12      -9.429214540828e-15 
   76       2.663458757652e-10       5.418485798096e-14      -1.127662187278e-12       0.000000000000e+00       2.159471006972e-11       2.722039989992e-12      -9.564914070328e-15 
   77       2.697053082880e-10       5.608579836967e-14      -1.195973020859e-12       0.000000000000e+00       2.091716073752e-11       2.648056055440e-12      -9.738088829631e-15 
   78       2.730949060692e-10       5.800945203548e-14      -1.265678626514e-12       0.000000000000e+00       2.026643762492e-11       2.577181929756e-12      -9.939419592365e-15 
   79       2.765153467915e-10       5.995383255162e-14      -1.336721867594e-12       0.000000000000e+00       1.964216308597e-11       2.509331711191e-12      -1.015840217519e-14 
   80       2.799669939005e-10       6.191682393774e-14      -1.409041741510e-12       0.000000000000e+00       1.904355555574e-11       2.444368603292e-12      -1.038330739369e-14 
   81       2.834498789504e-10       6.389617785787e-14      -1.482573319634e-12       0.000000000000e+00       1.846941180585e-11       2.382102731453e-12      -1.060114101826e-14 
   82       2.869636839499e-10       6.588951081822e-14      -1.557247687203e-12       0.000000000000e+00       1.791808920002e-11       2.322288959468e-12      -1.079760372999e-14 
   83       2.905077237083e-10       6.789430136518e-14      -1.632991883225e-12       0.000000000000e+00       1.738748794962e-11       2.264624706079e-12      -1.095705107660e-14 
   84       2.940813134881e-10       6.990813928379e-14      -1.709737238225e-12       0.000000000000e+00       1.687556147924e-11       2.208821271558e-12      -1.106574003202e-14 
   85       2.976849806629e-10       7.192952679784e-14      -1.787446107282e-12       0.000000000000e+00       1.638198360469e-11       2.154836186251e-12      -1.112227478341e-14 
   86       3.013194224927e-10       7.395720567182e-14      -1.866089479184e-12       0.000000000000e+00       1.590672648925e-11       2.102675556350e-12      -1.112882726698e-14 
   87       3.049851276629e-10       7.598991843176e-14      -1.945639052474e-12       0.000000000000e+00       1.544954836931e-11       2.052323044573e-12      -1.108801950024e-14 
   88       3.086823651063e-10       7.802640979845e-14      -2.026067316485e-12       0.000000000000e+00       1.500998468574e-11       2.003738922183e-12      -1.100293877495e-14 
   89       3.124111728243e-10       8.006542812062e-14      -2.107347632391e-12       0.000000000000e+00       1.458733921518e-11       1.956859120998e-12      -1.087715285006e-14 
   90       3.161713467086e-10       8.210572680816e-14      -2.189454314249e-12       0.000000000000e+00       1.418067520146e-11       1.911594285407e-12      -1.071472514458e-14 
   91       3.199624293633e-10       8.414606576533e-14      -2.272362710042e-12       0.000000000000e+00       1.378880648690e-11       1.867828824381e-12      -1.052022993061e-14 
   92       3.237836989261e-10       8.618521282394e-14      -2.356049282723e-12       0.000000000000e+00       1.341028864364e-11       1.825419963487e-12      -1.029876752616e-14 
   93       3.276344269272e-10       8.822183486643e-14      -2.440483602910e-12       0.000000000000e+00       1.304376170551e-11       1.784233594717e-12      -1.005549142140e-14 
   94       3.315147205085e-10       9.025414935049e-14      -2.525602773331e-12       0.000000000000e+00       1.268905659109e-11       1.744260052755e-12      -9.794075302827e-15 
   95       3.354247867957e-10       9.228022277970e-14      -2.611333289752e-12       0.000000000000e+00       1.234623946376e-11       1.705514079759e-12      -9.518042486787e-15 
   96       3.393646677634e-10       9.429807626386e-14      -2.697598757019e-12       0.000000000000e+00       1.201527097027e-11       1.667999142123e-12      -9.231241822435e-15 
   97       3.433342327490e-10       9.630568543798e-14      -2.784319859069e-12       0.000000000000e+00       1.169600219840e-11       1.631706987604e-12      -8.937856185046e-15 
   98       3.473331709680e-10       9.830098038131e-14      -2.871414328948e-12       0.000000000000e+00       1.138817063469e-11       1.596617202457e-12      -8.642410969335e-15 
   99       3.513609840282e-10       1.002818455363e-13      -2.958796918828e-12       0.000000000000e+00       1.109139612215e-11       1.562696768562e-12      -8.349782582771e-15 
  100       3.554169784449e-10       1.022461196275e-13      -3.046379370024e-12       0.000000000000e+00       1.080517681796e-11       1.529899620557e-12      -8.065206938898e-15 
  101       3.595002581551e-10       1.041915955809e-13      -3.134070383009e-12       0.000000000000e+00       1.052888515119e-11       1.498166202970e-12      -7.794287950654e-15 
  102       3.636097170323e-10       1.061160204424e-13      -3.221775587434e-12       0.000000000000e+00       1.026176378050e-11       1.467423027347e-12      -7.543006023684e-15 
  103       3.677440314016e-10       1.080170952974e-13      -3.309397512140e-12       0.000000000000e+00       1.000292155183e-11       1.437582229383e-12      -7.317726549661e-15 
  104       3.719019435127e-10       1.098925838627e-13      -3.396842087324e-12       0.000000000000e+00       9.751535524851e-12       1.408561574404e-12      -7.123733028725e-15 
  105       3.760831716945e-10       1.117406551454e-13      -3.484039215939e-12       0.000000000000e+00       9.507496839606e-12       1.380348505440e-12      -6.960582470018e-15 
  106       3.802876097671e-10       1.135595871369e-13      -3.570924938226e-12       0.000000000000e+00       9.270844967201e-12       1.352943961755e-12      -6.826135486622e-15 
  107       3.845150428255e-10       1.153476633726e-13      -3.657435189019e-12       0.000000000000e+00       9.041567675788e-12       1.326342487575e-12      -6.717968012497e-15 
